Si Wafer,,Si,,
2θ - °,Intensity - cps,2θ - °,Y,Intensity - cps
0,65350,28.44732,0,46450.30078125
0.00999999977648258,65133.33203125,28.44732,0,46450.93359375
0.0199999995529652,65416.66796875,47.31131,0,5089.5556640625
0.0299999993294477,66250,47.31131,0,5089.5556640625
0.0399999991059303,64866.66796875,56.13279,0,3605.10571289063
0.0500000007450581,63633.33203125,56.13279,0,3605.11401367188
0.0599999986588955,60633.33203125,58.86731,0,3403.158203125
0.0700000002980232,57316.66796875,58.86731,0,3403.16430664063
0.0799999982118607,55066.66796875,69.14347,0,2896.61987304688
0.0900000035762787,49616.66796875,69.14347,0,2896.62036132813
0.100000001490116,46450,76.3916,0,2537.93701171875
0.109999999403954,41316.66796875,76.3916,0,2537.93725585938
0.119999997317791,37966.66796875,88.04906,0,2981.87939453125
0.129999995231628,33033.33203125,88.04906,0,2981.87939453125
0.140000000596046,30450,,,
0.150000005960464,27116.666015625,,,
0.159999996423721,23600,,,
0.170000001788139,20850,,,
0.180000007152557,18633.333984375,,,
0.189999997615814,16433.333984375,,,
0.200000002980232,14033.3330078125,,,
0.209999993443489,12433.3330078125,,,
0.219999998807907,10483.3330078125,,,
0.230000004172325,9300,,,
0.239999994635582,8416.6669921875,,,
0.25,7550,,,
0.259999990463257,7416.66650390625,,,
0.270000010728836,6916.66650390625,,,
0.280000001192093,6416.66650390625,,,
0.28999999165535,6550,,,
0.300000011920929,6550,,,
0.310000002384186,6833.33349609375,,,
0.319999992847443,6333.33349609375,,,
0.330000013113022,5966.66650390625,,,
0.340000003576279,6400,,,
0.349999994039536,6616.66650390625,,,
0.360000014305115,6416.66650390625,,,
0.370000004768372,6183.33349609375,,,
0.379999995231628,6516.66650390625,,,
0.389999985694885,6533.33349609375,,,
0.400000005960464,6300,,,
0.409999996423721,6183.33349609375,,,
0.419999986886978,6483.33349609375,,,
0.430000007152557,6316.66650390625,,,
0.439999997615814,5916.66650390625,,,
0.449999988079071,5866.66650390625,,,
0.46000000834465,5733.33349609375,,,
0.469999998807907,5933.33349609375,,,
0.479999989271164,6250,,,
0.490000009536743,6233.33349609375,,,
0.5,6133.33349609375,,,
0.509999990463257,6033.33349609375,,,
0.519999980926514,6233.33349609375,,,
0.529999971389771,6450,,,
0.540000021457672,5833.33349609375,,,
0.550000011920929,6100,,,
0.560000002384186,5950,,,
0.569999992847443,5500,,,
0.579999983310699,5316.66650390625,,,
0.589999973773956,5400,,,
0.600000023841858,5200,,,
0.610000014305115,5516.66650390625,,,
0.620000004768372,5166.66650390625,,,
0.629999995231628,5333.33349609375,,,
0.639999985694885,5566.66650390625,,,
0.649999976158142,5283.33349609375,,,
0.660000026226044,5450,,,
0.670000016689301,5016.66650390625,,,
0.680000007152557,5266.66650390625,,,
0.689999997615814,5283.33349609375,,,
0.699999988079071,5250,,,
0.709999978542328,5333.33349609375,,,
0.720000028610229,5233.33349609375,,,
0.730000019073486,5466.66650390625,,,
0.740000009536743,4783.33349609375,,,
0.75,5216.66650390625,,,
0.759999990463257,4933.33349609375,,,
0.769999980926514,5016.66650390625,,,
0.779999971389771,5083.33349609375,,,
0.790000021457672,5333.33349609375,,,
0.800000011920929,4900,,,
0.810000002384186,4516.66650390625,,,
0.819999992847443,4950,,,
0.829999983310699,4783.33349609375,,,
0.839999973773956,4600,,,
0.850000023841858,4816.66650390625,,,
0.860000014305115,4883.33349609375,,,
0.870000004768372,4866.66650390625,,,
0.879999995231628,4800,,,
0.889999985694885,4483.33349609375,,,
0.899999976158142,4450,,,
0.910000026226044,4833.33349609375,,,
0.920000016689301,4833.33349609375,,,
0.930000007152557,4566.66650390625,,,
0.939999997615814,4250,,,
0.949999988079071,4083.33325195313,,,
0.959999978542328,4466.66650390625,,,
0.970000028610229,4466.66650390625,,,
0.980000019073486,4050,,,
0.990000009536743,3983.33325195313,,,
1,3700,,,
1.00999999046326,3816.66674804688,,,
1.01999998092651,3683.33325195313,,,
1.02999997138977,3716.66674804688,,,
1.03999996185303,3700,,,
1.04999995231628,3400,,,
1.05999994277954,3500,,,
1.07000005245209,3583.33325195313,,,
1.08000004291534,3483.33325195313,,,
1.0900000333786,3550,,,
1.10000002384186,3733.33325195313,,,
1.11000001430511,3600,,,
1.12000000476837,3316.66674804688,,,
1.12999999523163,3033.33325195313,,,
1.13999998569489,3183.33325195313,,,
1.14999997615814,2916.66674804688,,,
1.1599999666214,3000,,,
1.16999995708466,3133.33325195313,,,
1.17999994754791,2950,,,
1.19000005722046,3050,,,
1.20000004768372,2633.33325195313,,,
1.21000003814697,3033.33325195313,,,
1.22000002861023,3033.33325195313,,,
1.23000001907349,2933.33325195313,,,
1.24000000953674,3133.33325195313,,,
1.25,3050,,,
1.25999999046326,2900,,,
1.26999998092651,2850,,,
1.27999997138977,2816.66674804688,,,
1.28999996185303,2766.66674804688,,,
1.29999995231628,2633.33325195313,,,
1.30999994277954,2666.66674804688,,,
1.32000005245209,2516.66674804688,,,
1.33000004291534,2616.66674804688,,,
1.3400000333786,2400,,,
1.35000002384186,2483.33325195313,,,
1.36000001430511,2583.33325195313,,,
1.37000000476837,2316.66674804688,,,
1.37999999523163,2500,,,
1.38999998569489,2500,,,
1.39999997615814,2400,,,
1.4099999666214,2200,,,
1.41999995708466,2250,,,
1.42999994754791,2350,,,
1.44000005722046,2300,,,
1.45000004768372,2583.33325195313,,,
1.46000003814697,2350,,,
1.47000002861023,2483.33325195313,,,
1.48000001907349,2483.33325195313,,,
1.49000000953674,2250,,,
1.5,2233.33325195313,,,
1.50999999046326,2300,,,
1.51999998092651,2100,,,
1.52999997138977,2033.33337402344,,,
1.53999996185303,2016.66662597656,,,
1.54999995231628,1900,,,
1.55999994277954,2233.33325195313,,,
1.57000005245209,2116.66674804688,,,
1.58000004291534,2266.66674804688,,,
1.5900000333786,2200,,,
1.60000002384186,1883.33337402344,,,
1.61000001430511,1716.66662597656,,,
1.62000000476837,2016.66662597656,,,
1.62999999523163,2200,,,
1.63999998569489,2083.33325195313,,,
1.64999997615814,1883.33337402344,,,
1.6599999666214,1833.33337402344,,,
1.66999995708466,1700,,,
1.67999994754791,1900,,,
1.69000005722046,2183.33325195313,,,
1.70000004768372,3483.33325195313,,,
1.71000003814697,6016.66650390625,,,
1.72000002861023,8916.6669921875,,,
1.73000001907349,11900,,,
1.74000000953674,13916.6669921875,,,
1.75,15733.3330078125,,,
1.75999999046326,15966.6669921875,,,
1.76999998092651,16050,,,
1.77999997138977,15250,,,
1.78999996185303,14533.3330078125,,,
1.79999995231628,15750,,,
1.80999994277954,15716.6669921875,,,
1.82000005245209,15733.3330078125,,,
1.83000004291534,14650,,,
1.8400000333786,14533.3330078125,,,
1.85000002384186,14800,,,
1.86000001430511,14800,,,
1.87000000476837,14616.6669921875,,,
1.87999999523163,14366.6669921875,,,
1.88999998569489,14216.6669921875,,,
1.89999997615814,14450,,,
1.9099999666214,13916.6669921875,,,
1.91999995708466,13050,,,
1.92999994754791,13533.3330078125,,,
1.94000005722046,13783.3330078125,,,
1.95000004768372,12950,,,
1.96000003814697,12983.3330078125,,,
1.97000002861023,12966.6669921875,,,
1.98000001907349,12766.6669921875,,,
1.99000000953674,12516.6669921875,,,
2,12916.6669921875,,,
2.00999999046326,13133.3330078125,,,
2.01999998092651,13300,,,
2.02999997138977,12966.6669921875,,,
2.03999996185303,12200,,,
2.04999995231628,11900,,,
2.05999994277954,12033.3330078125,,,
2.0699999332428,12333.3330078125,,,
2.07999992370605,12500,,,
2.08999991416931,12800,,,
2.09999990463257,12633.3330078125,,,
2.10999989509583,12400,,,
2.11999988555908,11600,,,
2.13000011444092,11366.6669921875,,,
2.14000010490417,11433.3330078125,,,
2.15000009536743,11400,,,
2.16000008583069,10800,,,
2.17000007629395,10483.3330078125,,,
2.1800000667572,10933.3330078125,,,
2.19000005722046,11616.6669921875,,,
2.20000004768372,10633.3330078125,,,
2.21000003814697,10516.6669921875,,,
2.22000002861023,10666.6669921875,,,
2.23000001907349,10766.6669921875,,,
2.24000000953674,10566.6669921875,,,
2.25,10166.6669921875,,,
2.25999999046326,10216.6669921875,,,
2.26999998092651,10550,,,
2.27999997138977,10216.6669921875,,,
2.28999996185303,10466.6669921875,,,
2.29999995231628,10533.3330078125,,,
2.30999994277954,10050,,,
2.3199999332428,9816.6669921875,,,
2.32999992370605,9783.3330078125,,,
2.33999991416931,10083.3330078125,,,
2.34999990463257,9633.3330078125,,,
2.35999989509583,8950,,,
2.36999988555908,9300,,,
2.38000011444092,9500,,,
2.39000010490417,9666.6669921875,,,
2.40000009536743,9000,,,
2.41000008583069,8783.3330078125,,,
2.42000007629395,8500,,,
2.4300000667572,8700,,,
2.44000005722046,8883.3330078125,,,
2.45000004768372,8650,,,
2.46000003814697,8183.33349609375,,,
2.47000002861023,8183.33349609375,,,
2.48000001907349,7733.33349609375,,,
2.49000000953674,7966.66650390625,,,
2.5,7850,,,
2.50999999046326,7683.33349609375,,,
2.51999998092651,7466.66650390625,,,
2.52999997138977,7183.33349609375,,,
2.53999996185303,7600,,,
2.54999995231628,7433.33349609375,,,
2.55999994277954,7133.33349609375,,,
2.5699999332428,6866.66650390625,,,
2.57999992370605,6450,,,
2.58999991416931,6300,,,
2.59999990463257,6350,,,
2.60999989509583,6600,,,
2.61999988555908,5983.33349609375,,,
2.63000011444092,6066.66650390625,,,
2.64000010490417,5400,,,
2.65000009536743,5800,,,
2.66000008583069,5816.66650390625,,,
2.67000007629395,5600,,,
2.6800000667572,5800,,,
2.69000005722046,5500,,,
2.70000004768372,5416.66650390625,,,
2.71000003814697,4950,,,
2.72000002861023,4866.66650390625,,,
2.73000001907349,4866.66650390625,,,
2.74000000953674,4750,,,
2.75,4900,,,
2.75999999046326,4650,,,
2.76999998092651,4600,,,
2.77999997138977,4583.33349609375,,,
2.78999996185303,4483.33349609375,,,
2.79999995231628,4250,,,
2.80999994277954,3983.33325195313,,,
2.8199999332428,4433.33349609375,,,
2.82999992370605,4283.33349609375,,,
2.83999991416931,4516.66650390625,,,
2.84999990463257,4316.66650390625,,,
2.85999989509583,4450,,,
2.86999988555908,4483.33349609375,,,
2.88000011444092,3983.33325195313,,,
2.89000010490417,4116.66650390625,,,
2.90000009536743,4500,,,
2.91000008583069,4233.33349609375,,,
2.92000007629395,4183.33349609375,,,
2.9300000667572,4150,,,
2.94000005722046,4066.66674804688,,,
2.95000004768372,4200,,,
2.96000003814697,4033.33325195313,,,
2.97000002861023,4100,,,
2.98000001907349,4483.33349609375,,,
2.99000000953674,4283.33349609375,,,
3,4166.66650390625,,,
3.00999999046326,3850,,,
3.01999998092651,3983.33325195313,,,
3.02999997138977,4416.66650390625,,,
3.03999996185303,4300,,,
3.04999995231628,4200,,,
3.05999994277954,4300,,,
3.0699999332428,4233.33349609375,,,
3.07999992370605,4166.66650390625,,,
3.08999991416931,3933.33325195313,,,
3.09999990463257,4016.66674804688,,,
3.10999989509583,4300,,,
3.11999988555908,4166.66650390625,,,
3.13000011444092,4283.33349609375,,,
3.14000010490417,4050,,,
3.15000009536743,3900,,,
3.16000008583069,4116.66650390625,,,
3.17000007629395,4116.66650390625,,,
3.1800000667572,4083.33325195313,,,
3.19000005722046,4116.66650390625,,,
3.20000004768372,4466.66650390625,,,
3.21000003814697,4500,,,
3.22000002861023,4283.33349609375,,,
3.23000001907349,4133.33349609375,,,
3.24000000953674,4216.66650390625,,,
3.25,4366.66650390625,,,
3.25999999046326,3916.66674804688,,,
3.26999998092651,4050,,,
3.27999997138977,3866.66674804688,,,
3.28999996185303,3766.66674804688,,,
3.29999995231628,4100,,,
3.30999994277954,4283.33349609375,,,
3.3199999332428,4150,,,
3.32999992370605,4200,,,
3.33999991416931,4116.66650390625,,,
3.34999990463257,4016.66674804688,,,
3.35999989509583,3816.66674804688,,,
3.36999988555908,3816.66674804688,,,
3.38000011444092,3966.66674804688,,,
3.39000010490417,4100,,,
3.40000009536743,4650,,,
3.41000008583069,4400,,,
3.42000007629395,4000,,,
3.4300000667572,3800,,,
3.44000005722046,4150,,,
3.45000004768372,4000,,,
3.46000003814697,4066.66674804688,,,
3.47000002861023,3816.66674804688,,,
3.48000001907349,4050,,,
3.49000000953674,4066.66674804688,,,
3.5,4083.33325195313,,,
3.50999999046326,3850,,,
3.51999998092651,3650,,,
3.52999997138977,4350,,,
3.53999996185303,4216.66650390625,,,
3.54999995231628,4100,,,
3.55999994277954,4033.33325195313,,,
3.5699999332428,4066.66674804688,,,
3.57999992370605,4200,,,
3.58999991416931,3966.66674804688,,,
3.59999990463257,4033.33325195313,,,
3.60999989509583,4016.66674804688,,,
3.61999988555908,3850,,,
3.63000011444092,3933.33325195313,,,
3.64000010490417,3833.33325195313,,,
3.65000009536743,3966.66674804688,,,
3.66000008583069,4033.33325195313,,,
3.67000007629395,3966.66674804688,,,
3.6800000667572,3700,,,
3.69000005722046,4033.33325195313,,,
3.70000004768372,3816.66674804688,,,
3.71000003814697,3950,,,
3.72000002861023,4000,,,
3.73000001907349,4100,,,
3.74000000953674,4366.66650390625,,,
3.75,4350,,,
3.75999999046326,4116.66650390625,,,
3.76999998092651,3950,,,
3.77999997138977,4150,,,
3.78999996185303,4050,,,
3.79999995231628,4283.33349609375,,,
3.80999994277954,4250,,,
3.8199999332428,4533.33349609375,,,
3.82999992370605,4250,,,
3.83999991416931,3966.66674804688,,,
3.84999990463257,4100,,,
3.85999989509583,4216.66650390625,,,
3.86999988555908,4050,,,
3.88000011444092,3800,,,
3.89000010490417,3866.66674804688,,,
3.90000009536743,4233.33349609375,,,
3.91000008583069,4116.66650390625,,,
3.92000007629395,4166.66650390625,,,
3.9300000667572,3933.33325195313,,,
3.94000005722046,3983.33325195313,,,
3.95000004768372,4216.66650390625,,,
3.96000003814697,4250,,,
3.97000002861023,4166.66650390625,,,
3.98000001907349,4133.33349609375,,,
3.99000000953674,4283.33349609375,,,
4,4350,,,
4.01000022888184,4133.33349609375,,,
4.01999998092651,4200,,,
4.03000020980835,3916.66674804688,,,
4.03999996185303,3983.33325195313,,,
4.05000019073486,4216.66650390625,,,
4.05999994277954,4083.33325195313,,,
4.07000017166138,4250,,,
4.07999992370605,4233.33349609375,,,
4.09000015258789,4300,,,
4.09999990463257,4083.33325195313,,,
4.1100001335144,4283.33349609375,,,
4.11999988555908,4283.33349609375,,,
4.13000011444092,4116.66650390625,,,
4.1399998664856,4216.66650390625,,,
4.15000009536743,4050,,,
4.15999984741211,4250,,,
4.17000007629395,4166.66650390625,,,
4.17999982833862,4016.66674804688,,,
4.19000005722046,3900,,,
4.19999980926514,3883.33325195313,,,
4.21000003814697,4116.66650390625,,,
4.21999979019165,4100,,,
4.23000001907349,4150,,,
4.23999977111816,4233.33349609375,,,
4.25,4100,,,
4.26000022888184,3933.33325195313,,,
4.26999998092651,4333.33349609375,,,
4.28000020980835,4233.33349609375,,,
4.28999996185303,4100,,,
4.30000019073486,4100,,,
4.30999994277954,4016.66674804688,,,
4.32000017166138,3833.33325195313,,,
4.32999992370605,4283.33349609375,,,
4.34000015258789,4033.33325195313,,,
4.34999990463257,3850,,,
4.3600001335144,4083.33325195313,,,
4.36999988555908,4350,,,
4.38000011444092,4683.33349609375,,,
4.3899998664856,4400,,,
4.40000009536743,4100,,,
4.40999984741211,4200,,,
4.42000007629395,4133.33349609375,,,
4.42999982833862,4466.66650390625,,,
4.44000005722046,4816.66650390625,,,
4.44999980926514,4566.66650390625,,,
4.46000003814697,4516.66650390625,,,
4.46999979019165,4500,,,
4.48000001907349,4283.33349609375,,,
4.48999977111816,4583.33349609375,,,
4.5,4250,,,
4.51000022888184,4116.66650390625,,,
4.51999998092651,4450,,,
4.53000020980835,4566.66650390625,,,
4.53999996185303,3966.66674804688,,,
4.55000019073486,4000,,,
4.55999994277954,4433.33349609375,,,
4.57000017166138,4283.33349609375,,,
4.57999992370605,4216.66650390625,,,
4.59000015258789,4266.66650390625,,,
4.59999990463257,4183.33349609375,,,
4.6100001335144,4316.66650390625,,,
4.61999988555908,4266.66650390625,,,
4.63000011444092,4383.33349609375,,,
4.6399998664856,4100,,,
4.65000009536743,4383.33349609375,,,
4.65999984741211,4533.33349609375,,,
4.67000007629395,4233.33349609375,,,
4.67999982833862,4300,,,
4.69000005722046,4483.33349609375,,,
4.69999980926514,4166.66650390625,,,
4.71000003814697,4066.66674804688,,,
4.71999979019165,4500,,,
4.73000001907349,4616.66650390625,,,
4.73999977111816,4416.66650390625,,,
4.75,4483.33349609375,,,
4.76000022888184,4633.33349609375,,,
4.76999998092651,4750,,,
4.78000020980835,4683.33349609375,,,
4.78999996185303,4516.66650390625,,,
4.80000019073486,4700,,,
4.80999994277954,4500,,,
4.82000017166138,4250,,,
4.82999992370605,4100,,,
4.84000015258789,4116.66650390625,,,
4.84999990463257,4450,,,
4.8600001335144,4433.33349609375,,,
4.86999988555908,4333.33349609375,,,
4.88000011444092,4216.66650390625,,,
4.8899998664856,4350,,,
4.90000009536743,4716.66650390625,,,
4.90999984741211,4566.66650390625,,,
4.92000007629395,4216.66650390625,,,
4.92999982833862,4350,,,
4.94000005722046,4333.33349609375,,,
4.94999980926514,4283.33349609375,,,
4.96000003814697,4300,,,
4.96999979019165,4500,,,
4.98000001907349,4433.33349609375,,,
4.98999977111816,4333.33349609375,,,
5,4233.33349609375,,,
5.01000022888184,4016.66674804688,,,
5.01999998092651,4400,,,
5.03000020980835,4483.33349609375,,,
5.03999996185303,4783.33349609375,,,
5.05000019073486,4616.66650390625,,,
5.05999994277954,4483.33349609375,,,
5.07000017166138,4516.66650390625,,,
5.07999992370605,4383.33349609375,,,
5.09000015258789,4183.33349609375,,,
5.09999990463257,4266.66650390625,,,
5.1100001335144,4416.66650390625,,,
5.11999988555908,4333.33349609375,,,
5.13000011444092,4283.33349609375,,,
5.1399998664856,4500,,,
5.15000009536743,4516.66650390625,,,
5.15999984741211,4700,,,
5.17000007629395,4766.66650390625,,,
5.17999982833862,4900,,,
5.19000005722046,4483.33349609375,,,
5.19999980926514,3933.33325195313,,,
5.21000003814697,4416.66650390625,,,
5.21999979019165,4650,,,
5.23000001907349,4550,,,
5.23999977111816,4416.66650390625,,,
5.25,4716.66650390625,,,
5.26000022888184,4666.66650390625,,,
5.26999998092651,4883.33349609375,,,
5.28000020980835,4650,,,
5.28999996185303,4300,,,
5.30000019073486,4266.66650390625,,,
5.30999994277954,4400,,,
5.32000017166138,4616.66650390625,,,
5.32999992370605,4833.33349609375,,,
5.34000015258789,4950,,,
5.34999990463257,4733.33349609375,,,
5.3600001335144,4600,,,
5.36999988555908,4566.66650390625,,,
5.38000011444092,4466.66650390625,,,
5.3899998664856,4566.66650390625,,,
5.40000009536743,4566.66650390625,,,
5.40999984741211,4616.66650390625,,,
5.42000007629395,4883.33349609375,,,
5.42999982833862,5166.66650390625,,,
5.44000005722046,4966.66650390625,,,
5.44999980926514,4533.33349609375,,,
5.46000003814697,4700,,,
5.46999979019165,5016.66650390625,,,
5.48000001907349,4750,,,
5.48999977111816,4550,,,
5.5,4850,,,
5.51000022888184,5050,,,
5.51999998092651,4883.33349609375,,,
5.53000020980835,4566.66650390625,,,
5.53999996185303,4733.33349609375,,,
5.55000019073486,4900,,,
5.55999994277954,4800,,,
5.57000017166138,4683.33349609375,,,
5.57999992370605,4450,,,
5.59000015258789,4366.66650390625,,,
5.59999990463257,4583.33349609375,,,
5.6100001335144,4400,,,
5.61999988555908,4716.66650390625,,,
5.63000011444092,4633.33349609375,,,
5.6399998664856,4900,,,
5.65000009536743,5050,,,
5.65999984741211,4716.66650390625,,,
5.67000007629395,4850,,,
5.67999982833862,4716.66650390625,,,
5.69000005722046,4566.66650390625,,,
5.69999980926514,4683.33349609375,,,
5.71000003814697,5066.66650390625,,,
5.71999979019165,4900,,,
5.73000001907349,4816.66650390625,,,
5.73999977111816,4916.66650390625,,,
5.75,5050,,,
5.76000022888184,5250,,,
5.76999998092651,5000,,,
5.78000020980835,4466.66650390625,,,
5.78999996185303,4416.66650390625,,,
5.80000019073486,4800,,,
5.80999994277954,5066.66650390625,,,
5.82000017166138,4816.66650390625,,,
5.82999992370605,4700,,,
5.84000015258789,4450,,,
5.84999990463257,4750,,,
5.8600001335144,4416.66650390625,,,
5.86999988555908,4516.66650390625,,,
5.88000011444092,5016.66650390625,,,
5.8899998664856,4916.66650390625,,,
5.90000009536743,4750,,,
5.90999984741211,4766.66650390625,,,
5.92000007629395,4566.66650390625,,,
5.92999982833862,4800,,,
5.94000005722046,5000,,,
5.94999980926514,4800,,,
5.96000003814697,4700,,,
5.96999979019165,4766.66650390625,,,
5.98000001907349,5116.66650390625,,,
5.98999977111816,5383.33349609375,,,
6,4950,,,
6.01000022888184,5166.66650390625,,,
6.01999998092651,5000,,,
6.03000020980835,4766.66650390625,,,
6.03999996185303,5150,,,
6.05000019073486,4850,,,
6.05999994277954,5116.66650390625,,,
6.07000017166138,5233.33349609375,,,
